# wavelength [um]             TOA Flux [W/m2/m]         Bright. Temp. [K]
1.000553076518779783e-01 1.076841749401192372e+00 3.199676559559709403e+03
1.004555288824854897e-01 2.831759451243123493e+01 3.438299422157735989e+03
1.008573509980154326e-01 3.259045372179844691e+01 3.437831426731516785e+03
1.012607804020075053e-01 3.885645393561276251e+01 3.440351008241012096e+03
1.016658235236155422e-01 4.335188612072536074e+01 3.437405034635111861e+03
1.020724868177099870e-01 4.524982957186316668e+01 3.428935260869340709e+03
1.024807767649808382e-01 5.800357524559781552e+01 3.437682289008584576e+03
1.028906998720407612e-01 6.628071773177222781e+01 3.436876998881939471e+03
1.033022626715289355e-01 7.077883241697826122e+01 3.430394859172133692e+03
1.037154717222150413e-01 8.539910331438110802e+01 3.434279160463806875e+03
1.041303336091038839e-01 1.007329444701968129e+02 3.436325012666627117e+03
1.045468549435403099e-01 1.110622317629760403e+02 3.432660630535248856e+03
1.049650423633144702e-01 1.362709145280712733e+02 3.438216741561327126e+03
1.053849025327677214e-01 1.541501941350183529e+02 3.436853051505324402e+03
1.058064421428987906e-01 1.818247331760395014e+02 3.439165152311271413e+03
1.062296679114703990e-01 1.900656560071423939e+02 3.431035364917639527e+03
1.066545865831162732e-01 2.270410185338509166e+02 3.434548958898442379e+03
1.070812049294487533e-01 2.599872686935457295e+02 3.434443517816775511e+03
1.075095297491665408e-01 2.907854079962415881e+02 3.432320306344088294e+03
1.079395678681632220e-01 3.469374594077904703e+02 3.435943564383985176e+03
1.083713261396358624e-01 3.629209117159719540e+02 3.427991609220350256e+03
1.088048114441943909e-01 4.383952375980575766e+02 3.432828784855967569e+03
1.092400306899711654e-01 4.673178147311902535e+02 3.426602364197432507e+03
1.096769908127310511e-01 5.750791554378735100e+02 3.433244122884553690e+03
1.101156987759819850e-01 7.513200100183138375e+02 3.445441016872866385e+03
1.105561615710859147e-01 8.754503562906686511e+02 3.447410749154486439e+03
1.109983862173702651e-01 9.600554714766465167e+02 3.443901324575767376e+03
1.114423797622397516e-01 1.051712355469421027e+03 3.440328113275269516e+03
1.118881492812886930e-01 1.183802340276898121e+03 3.439279433559737299e+03
1.123357018784138517e-01 1.363713494413383842e+03 3.440415283764618835e+03
1.127850446859275102e-01 1.400581123089092443e+03 3.431001598750701760e+03
1.132361848646712132e-01 1.475631650974455397e+03 3.423969689342172842e+03
1.136891296041298988e-01 1.683813682817908102e+03 3.424332501054499517e+03
1.141438861225464035e-01 2.024781870295946646e+03 3.429632643314403140e+03
1.146004616670366072e-01 2.203388832660859407e+03 3.425697357027655016e+03
1.150588635137047705e-01 2.555349680927774898e+03 3.427758416707440119e+03
1.155190989677595953e-01 2.789407993028340570e+03 3.424190088229121102e+03
1.159811753636306314e-01 3.515984345974889948e+03 3.434261826564458261e+03
1.164451000650851553e-01 3.600555735142877893e+03 3.424720647958760765e+03
1.169108804653455069e-01 4.188286659101007899e+03 3.427317561928220584e+03
1.173785239872068981e-01 4.816804099941539789e+03 3.428903110113156345e+03
1.178480380831557206e-01 5.688142436727397580e+03 3.433106796588242105e+03
1.183194302354883543e-01 6.423469856702827201e+03 3.433076888097352821e+03
1.187927079564302935e-01 7.631831819877582348e+03 3.438046065522050867e+03
1.192678787882560099e-01 9.327657104119507494e+03 3.445903677761020390e+03
1.197449503034090645e-01 9.799241472114190401e+03 3.438972917520243300e+03
1.202239301046226783e-01 1.164870239247124664e+04 3.444261083243024586e+03
1.207048258250411760e-01 1.286447954272480456e+04 3.442338106168609556e+03
1.211876451283413342e-01 1.529998559752720394e+04 3.447852734900910946e+03
1.216723957088547137e-01 1.757638187143405594e+04 3.449994828072846758e+03
1.221590852916901310e-01 1.994858400063094086e+04 3.450989320838109961e+03
1.226477216328568792e-01 2.249297924658573174e+04 3.451382428160109157e+03
1.231383125193883099e-01 2.649421790947506088e+04 3.456288775084499321e+03
1.236308657694658586e-01 2.940344731398514705e+04 3.455192677276381801e+03
1.241253892325437369e-01 3.391642504012912832e+04 3.458117104659260349e+03
1.246218907894739159e-01 3.994325041971298197e+04 3.463279687352095607e+03
1.251203783526317892e-01 4.550462321724349022e+04 3.465088168952955584e+03
1.256208598660423226e-01 5.324372385588614270e+04 3.469770906501413265e+03
1.261233433055065078e-01 5.723107483752016560e+04 3.465613691769659908e+03
1.266278366787285392e-01 6.993719318498283974e+04 3.475053884056650077e+03
1.271343480254434610e-01 7.503803883925233094e+04 3.470789598574815045e+03
1.276428854175452321e-01 8.293004770120371541e+04 3.469712515101317422e+03
1.281534569592154005e-01 1.009897334648061660e+05 3.479099544929278181e+03
1.286660707870522780e-01 1.114054427978535532e+05 3.477954324640232244e+03
1.291807350702004475e-01 1.193876157211777172e+05 3.473719730326065928e+03
1.296974580104812425e-01 1.357185393551044399e+05 3.475924596664910496e+03
1.302162478425231973e-01 1.614172383849113830e+05 3.483156218505376728e+03
1.307371128338932764e-01 1.781909225747935998e+05 3.482308150563267645e+03
1.312600612852288795e-01 1.922167277200279641e+05 3.478960360844052957e+03
1.317851015303697915e-01 2.224845261025196523e+05 3.483453260961635806e+03
1.323122419364912705e-01 2.485185549519819615e+05 3.484078719368383190e+03
1.328414909042372472e-01 2.748733290446058963e+05 3.483660498983497746e+03
1.333728568678542170e-01 3.052774596552100847e+05 3.483757434232161359e+03
1.339063482953256612e-01 3.464735165042626904e+05 3.486358257588383822e+03
1.344419736885069383e-01 3.816729665319560445e+05 3.485654022320141394e+03
1.349797415832609815e-01 4.238524744470376754e+05 3.485918135959171195e+03
1.355196605495940232e-01 4.664695795409971615e+05 3.485209778732758423e+03
1.360617391917924301e-01 5.204842945092303562e+05 3.486130613277476186e+03
1.366059861485595939e-01 5.798745404511406086e+05 3.486940445283445570e+03
1.371524100931538481e-01 6.453645991172245704e+05 3.487691537221875933e+03
1.377010197335264696e-01 7.107799069296733942e+05 3.487288768079875354e+03
1.382518238124605670e-01 7.774792191741907736e+05 3.486139060014290408e+03
1.388048311077104136e-01 8.635449857769994996e+05 3.486827654799546963e+03
1.393600504321412248e-01 9.586773179328591796e+05 3.487521310554505362e+03
1.399174906338697677e-01 1.064202185599873308e+06 3.488266888951878627e+03
1.404771605964052761e-01 1.163306214086818742e+06 3.487248968520037579e+03
1.410390692387908651e-01 1.288342045703100739e+06 3.487832893152777615e+03
1.416032255157460562e-01 1.401627213886525948e+06 3.486347879276775529e+03
1.421696384178090522e-01 1.573465556732167024e+06 3.488672110873792917e+03
1.427383169714803168e-01 1.717774235464996658e+06 3.487707987143796800e+03
1.433092702393662099e-01 1.856817166627322091e+06 3.485593633717657667e+03
1.438825073203236771e-01 2.067087331505561480e+06 3.487093091403822200e+03
1.444580373496049674e-01 2.231878382574561518e+06 3.484933946155103968e+03
1.450358694990033503e-01 2.504977568013213109e+06 3.487553031312130315e+03
1.456160129769993872e-01 2.723355388746542856e+06 3.486334947794747677e+03
1.461984770289073976e-01 2.949172354392663110e+06 3.484679883313427581e+03
1.467832709370230082e-01 3.297515915573996957e+06 3.487027491185596773e+03
1.473704040207710897e-01 3.603790816879512277e+06 3.486611505207931714e+03
1.479598856368541382e-01 4.006340303563751746e+06 3.488381073169055981e+03
1.485517251794015725e-01 4.313504148333373480e+06 3.486204570164153665e+03
1.491459320801191979e-01 4.671101803005831316e+06 3.484794689848521557e+03
1.497425158084396690e-01 5.166865972343554720e+06 3.486110082157523721e+03
1.503414858716734248e-01 5.532737067581092939e+06 3.483377741583251009e+03
1.509428518151600951e-01 6.159008227176802233e+06 3.485618428762958501e+03
1.515466232224207677e-01 6.819508945028195158e+06 3.487249745642268863e+03
1.521528097153104220e-01 7.344728501706826501e+06 3.485396515633789932e+03
1.527614209541716672e-01 8.068295445686799474e+06 3.486131586121171040e+03
1.533724666379883694e-01 8.662800315560050309e+06 3.483971224848971360e+03
1.539859565045403056e-01 9.254460149258526042e+06 3.481200390085197796e+03
1.546019003305584838e-01 1.066722276946204156e+07 3.488365683359688774e+03
1.552203079318807133e-01 1.131438878032086231e+07 3.484756745844978923e+03
1.558411891636082569e-01 1.231638154192794301e+07 3.484588466401611186e+03
1.564645539202626778e-01 1.355524781927544810e+07 3.485924443967898696e+03
1.570904121359437411e-01 1.437830529497596435e+07 3.482441218978441157e+03
1.577187737844875093e-01 1.586439432715101354e+07 3.484223372485343134e+03
1.583496488796254653e-01 1.688141716629358009e+07 3.481245204473807917e+03
1.589830474751439959e-01 1.782089634260086715e+07 3.477238919031612568e+03
1.596189796650445414e-01 1.996044548221166059e+07 3.481200318626807530e+03
1.602574555837047166e-01 2.185217241154506058e+07 3.482175432332855962e+03
1.608984854060395708e-01 2.315323025585089251e+07 3.478786768913588276e+03
1.615420793476636807e-01 2.507993363599805161e+07 3.478429374291603835e+03
1.621882476650543525e-01 2.634361601601707190e+07 3.473937830695157572e+03
1.628370006557145755e-01 2.937768812993355095e+07 3.477641092375105472e+03
1.634883486583374457e-01 3.179102403182685748e+07 3.477307341941248978e+03
1.641423020529707844e-01 3.317492428434119374e+07 3.472027627142872007e+03
1.647988712611826723e-01 3.753442657186699659e+07 3.477930611272917758e+03
1.654580667462274002e-01 4.222748090852959454e+07 3.483169307522034160e+03
1.661198990132123077e-01 4.363573548594105244e+07 3.476631804360150909e+03
1.667843786092651215e-01 4.781453845783952624e+07 3.478318627652936357e+03
1.674515161237022098e-01 5.041249673638255894e+07 3.474658167988813602e+03
1.681213221881969755e-01 5.277463684110289812e+07 3.470031027231910684e+03
1.687938074769497754e-01 5.612557960419379920e+07 3.467655222594040879e+03
1.694689827068575905e-01 5.947567826350543648e+07 3.464812628524905904e+03
1.701468586376850278e-01 6.457588449743571132e+07 3.465450685987529596e+03
1.708274460722357391e-01 7.337026623619239032e+07 3.472630915353071941e+03
1.715107558565246715e-01 7.943937493743525445e+07 3.473018075965353091e+03
1.721967988799507909e-01 8.573034571694105864e+07 3.472993494051492235e+03
1.728855860754705820e-01 9.339693388991762698e+07 3.474391306289145632e+03
1.735771284197724640e-01 9.756358003167466819e+07 3.469752323520880509e+03
1.742714369334515678e-01 1.036894774811641127e+08 3.467651849708306599e+03
1.749685226811853456e-01 1.101044634904588759e+08 3.465465983284098456e+03
1.756683967719100681e-01 1.148375043797344118e+08 3.460698421840083938e+03
1.763710703589977391e-01 1.214859347134056389e+08 3.458037805246441621e+03
1.770765546404337309e-01 1.349016669039641619e+08 3.462543960525541934e+03
1.777848608589954471e-01 1.463055405853202939e+08 3.463656184326927814e+03
1.784960003024314568e-01 1.562554170109972954e+08 3.462550536482097868e+03
1.792099843036411844e-01 1.699813690977558792e+08 3.464237514971338442e+03
1.799268242408557650e-01 1.784655120196242929e+08 3.460677735465468686e+03
1.806465315378191772e-01 1.932564616807489991e+08 3.461792329527503625e+03
1.813691176639704306e-01 2.045605228554585278e+08 3.459536170893176404e+03
1.820945941346263086e-01 2.155823241822854578e+08 3.456660456992953641e+03
1.828229725111648329e-01 2.284709389456225634e+08 3.454667872369991073e+03
1.835542644012094771e-01 2.467748531313790977e+08 3.455605781338010729e+03
1.842884814588143239e-01 2.636081544767854512e+08 3.454914138750097663e+03
1.850256353846495561e-01 2.887625929662099481e+08 3.458132068603880725e+03
1.857657379261881403e-01 3.033526863669871688e+08 3.454982709109331154e+03
1.865088008778928996e-01 3.222055187099173069e+08 3.453567364752554113e+03
1.872548360814044743e-01 3.472538695686988831e+08 3.454456313127408066e+03
1.880038554257300876e-01 3.690446335585128665e+08 3.453227016690305391e+03
1.887558708474330049e-01 3.926762215256254077e+08 3.452232352711558633e+03
1.895108943308226879e-01 4.168595578057299256e+08 3.450924496702329179e+03
1.902689379081460019e-01 4.460904130860394835e+08 3.450921626680066765e+03
1.910300136597785636e-01 4.749098693588566184e+08 3.450157768868098174e+03
1.917941337144176972e-01 5.031397930028488040e+08 3.448673447722924720e+03
1.925613102492753359e-01 5.395790818006602526e+08 3.449169392693624559e+03
1.933315554902724498e-01 5.737231630274264812e+08 3.448357353496024189e+03
1.941048817122335568e-01 6.141333217086602449e+08 3.448668988931374315e+03
1.948813012390824828e-01 6.584169064652822018e+08 3.449289656889367507e+03
1.956608264440388156e-01 6.987898304650473595e+08 3.448336241167606659e+03
1.964434697498149418e-01 7.447046158160828352e+08 3.448099728511250305e+03
1.972292436288141937e-01 7.901882081399806738e+08 3.447207913522907347e+03
1.980181606033294406e-01 8.494703534571107626e+08 3.448498040745799244e+03
1.988102332457427346e-01 9.058590203556939363e+08 3.448529387560618488e+03
1.996054741787257336e-01 9.614106650395511389e+08 3.447833079606198226e+03
2.004038960754406518e-01 1.026756800698068857e+09 3.448218690526037335e+03
2.012055116597424309e-01 1.095652712868920565e+09 3.448527514221069396e+03
2.020103337063813842e-01 1.170029129716599703e+09 3.449016371454638374e+03
2.028183750412069219e-01 1.243938934001817465e+09 3.448823390906051827e+03
2.036296485413717494e-01 1.318939929740334511e+09 3.448228675658255270e+03
2.044441671355372303e-01 1.385331573533300161e+09 3.446093654632664766e+03
2.052619438040793887e-01 1.473098261150016308e+09 3.446082379694655174e+03
2.060829915792957157e-01 1.567756729221339464e+09 3.446270509512220087e+03
2.069073235456129201e-01 1.664352800668800116e+09 3.446090964875887039e+03
2.077349528397953449e-01 1.768786717191461325e+09 3.446147856026630961e+03
2.085658926511545219e-01 1.888208068555989742e+09 3.447030402890331970e+03
2.094001562217591150e-01 2.011366321187247515e+09 3.447604394917020727e+03
2.102377568466461677e-01 2.148076587953165531e+09 3.448684880669027734e+03
2.110787078740327671e-01 2.274241833028102875e+09 3.448315986575572879e+03
2.119230227055288740e-01 2.398289240173596859e+09 3.447305996177370616e+03
2.127707147963510126e-01 2.553896400077764034e+09 3.448056032541814147e+03
2.136217976555363773e-01 2.697784108541147709e+09 3.447447446796113582e+03
2.144762848461585492e-01 2.866124723607533932e+09 3.447901458430997081e+03
2.153341899855431840e-01 3.045154554030760765e+09 3.448425202801689466e+03
2.161955267454853669e-01 3.250828607959156990e+09 3.449859902444218733e+03
2.170603088524672986e-01 3.436397395422649384e+09 3.449596353128958526e+03
2.179285500878772042e-01 3.622296584354464054e+09 3.448876709492318241e+03
2.188002642882286852e-01 3.846196465933523655e+09 3.449524251503675714e+03
2.196754653453815986e-01 4.049540169265140057e+09 3.448697640130022137e+03
2.205541672067631020e-01 4.264089311839845657e+09 3.447939377235349639e+03
2.214363838755901703e-01 4.543774045886538506e+09 3.449406542347877348e+03
2.223221294110925284e-01 4.780944979218828201e+09 3.448618539083682663e+03
2.232114179287369160e-01 5.018056595072514534e+09 3.447423722521792570e+03
2.241042636004518529e-01 5.318038376007711411e+09 3.448060689439651469e+03
2.250006806548536520e-01 5.611236877909036636e+09 3.447941827477874995e+03
2.259006833774730438e-01 5.983660313321458817e+09 3.449853528810710486e+03
2.268042861109829667e-01 6.308395837218547821e+09 3.449698204356626775e+03
2.277115032554268836e-01 6.635391299611793518e+09 3.449161832329497884e+03
2.286223492684485714e-01 6.979306227182215691e+09 3.448675679294253769e+03
2.295368386655223802e-01 7.345001382633708954e+09 3.448342987459190681e+03
2.304549860201844658e-01 7.817955516199279785e+09 3.450219826688939520e+03
2.313768059642651864e-01 8.123550009921213150e+09 3.447569581061351528e+03
2.323023131881222503e-01 8.549538466610018730e+09 3.447402327052957389e+03
2.332315224408747223e-01 8.982996041478851318e+09 3.446970691723703112e+03
2.341644485306381973e-01 9.527656516750022888e+09 3.448408814009427715e+03
2.351011063247607502e-01 1.005591889328206253e+10 3.448962778465225711e+03
2.360415107500598020e-01 1.053826878971954918e+10 3.448190552673321235e+03
2.369856767930600405e-01 1.113884492015598679e+10 3.449144864121359205e+03
2.379336195002322851e-01 1.173667809643528366e+10 3.449544302211416834e+03
2.388853539782332114e-01 1.224773568966073418e+10 3.448096857438043116e+03
2.398408953941461863e-01 1.285659784321899033e+10 3.447860372840328637e+03
2.408002589757227141e-01 1.351655159369787216e+10 3.447983579636500963e+03
2.417634600116256582e-01 1.423494013173247910e+10 3.448507567236128580e+03
2.427305138516721306e-01 1.479060965150685120e+10 3.446388635167268149e+03
2.437014359070788505e-01 1.555787202860100746e+10 3.446777166051912445e+03
2.446762416507071713e-01 1.625270209892471695e+10 3.445835497757298072e+03
2.456549466173099938e-01 1.706074876834037018e+10 3.445919503863118280e+03
2.466375664037792625e-01 1.800216743072220230e+10 3.447115052569631644e+03
2.476241166693943785e-01 1.901465695765557861e+10 3.448581921124824476e+03
2.486146131360719436e-01 2.080724543020574188e+10 3.457399715839308556e+03
2.496090715886161993e-01 2.091514041009228516e+10 3.448797472478368491e+03
2.506075078749706586e-01 2.187457034562326050e+10 3.448414167480295873e+03
2.516099379064705155e-01 2.316006046813207626e+10 3.450629591941602030e+03
2.526163776580964138e-01 2.441664080077026749e+10 3.452028583911755049e+03
2.536268431687287994e-01 2.461053713097801971e+10 3.444086492485727831e+03
2.546413505414037437e-01 2.579346583431078720e+10 3.444339996488332417e+03
2.556599159435693491e-01 2.696763825411350250e+10 3.444138975832463984e+03
2.566825556073435988e-01 2.839532236437363434e+10 3.445486550790315050e+03
2.577092858297729827e-01 2.962425822277705383e+10 3.444942903927834323e+03
2.587401229730920682e-01 3.114701411038594437e+10 3.446103807287087420e+03
2.597750834649844576e-01 3.257810283328872299e+10 3.446215254745418406e+03
2.608141837988444123e-01 3.398027974034564972e+10 3.445784545370976048e+03
2.618574405340398092e-01 3.519692491527681732e+10 3.443903949610953077e+03
2.629048702961759298e-01 3.639974268515628815e+10 3.441724765368162025e+03
2.639564897773606367e-01 3.766735920727564240e+10 3.439722318718186216e+03
2.650123157364701054e-01 3.936954647230057526e+10 3.439929544781701679e+03
2.660723649994159445e-01 4.120817445800308228e+10 3.440509510886113731e+03
2.671366544594135917e-01 4.325674368927393341e+10 3.441780315765981868e+03
2.682052010772512096e-01 4.480675312103607178e+10 3.440181678684501549e+03
2.692780218815602478e-01 4.722518200122219086e+10 3.442468912666223332e+03
2.703551339690865030e-01 4.863422077634708405e+10 3.439680186523781231e+03
2.714365545049627904e-01 5.125973364742858887e+10 3.442095679273261339e+03
2.725223007229827243e-01 5.361820641467485046e+10 3.442885029323010713e+03
2.736123899258746106e-01 5.560027953227539825e+10 3.441781146051642281e+03
2.747068394855781692e-01 5.775835997611475372e+10 3.441126163389639714e+03
2.758056668435204806e-01 5.965667264001911163e+10 3.439220288919671930e+03
2.769088895108945403e-01 6.069587098021304321e+10 3.433937054738757979e+03
2.780165250689380918e-01 6.394489173716783142e+10 3.436614331469885201e+03
2.791285911692138466e-01 6.803998163183369446e+10 3.441649631918363411e+03
2.802451055338907038e-01 7.100449781297645569e+10 3.442311165546459051e+03
2.813660859560263017e-01 7.103369562248103333e+10 3.433280823362149931e+03
2.824915502998503469e-01 7.400819937291809082e+10 3.433644829676580230e+03
2.836215165010497197e-01 7.724640245343582153e+10 3.434485471498570405e+03
2.847560025670539119e-01 8.576765539410691833e+10 3.449871527040420915e+03
2.858950265773221866e-01 8.604796239141972351e+10 3.441577787750196421e+03
2.870386066836315142e-01 8.572235842808244324e+10 3.431656468410260004e+03
