# wavelength [um]             TOA Flux [W/m2/m]         Bright. Temp. [K]
1.000553076518779783e-01 9.310604604742679369e-01 3.189365318230642970e+03
1.004555288824854897e-01 3.981332378990030207e+01 3.466621546821561424e+03
1.008573509980154326e-01 4.639939877794299861e+01 3.467316019783784668e+03
1.012607804020075053e-01 5.520088226786601382e+01 3.469815127543477502e+03
1.016658235236155422e-01 5.948790772793467596e+01 3.463997431875392067e+03
1.020724868177099870e-01 6.281232200601816373e+01 3.456478755089110564e+03
1.024807767649808382e-01 7.537575576222378970e+01 3.459851069178671878e+03
1.028906998720407612e-01 8.856124538516088762e+01 3.461503497467612760e+03
1.033022626715289355e-01 9.534253073314421556e+01 3.455722401237313534e+03
1.037154717222150413e-01 1.164239087513061719e+02 3.460799975154531239e+03
1.041303336091038839e-01 1.384782100688619835e+02 3.463707569190471077e+03
1.045468549435403099e-01 1.528721209499957183e+02 3.460205201144421608e+03
1.049650423633144702e-01 1.912006596131241452e+02 3.467641041138037053e+03
1.053849025327677214e-01 2.144008017889133555e+02 3.465602721178786851e+03
1.058064421428987906e-01 2.491422871314101712e+02 3.466750497084382005e+03
1.062296679114703990e-01 2.515613750531390451e+02 3.455545410484042804e+03
1.066545865831162732e-01 3.044468564101161405e+02 3.460364848179536693e+03
1.070812049294487533e-01 3.591942825288058430e+02 3.463022318280818581e+03
1.075095297491665408e-01 3.870207645982101781e+02 3.457643858248755805e+03
1.079395678681632220e-01 4.755317649960904873e+02 3.464064390907833058e+03
1.083713261396358624e-01 4.842015581466687877e+02 3.453672550168063481e+03
1.088048114441943909e-01 5.890516514072731979e+02 3.459325883404090746e+03
1.092400306899711654e-01 6.318523419691192657e+02 3.453675040806756442e+03
1.096769908127310511e-01 7.687582831779462822e+02 3.459494756895483533e+03
1.101156987759819850e-01 8.898535794453913468e+02 3.460866918069079929e+03
1.105561615710859147e-01 1.007226158235599428e+03 3.460248542186466693e+03
1.109983862173702651e-01 1.147961004770696036e+03 3.460316266759850350e+03
1.114423797622397516e-01 1.330440946264059903e+03 3.461991092153675709e+03
1.118881492812886930e-01 1.519523302062356152e+03 3.462372925863342516e+03
1.123357018784138517e-01 1.687549538970687536e+03 3.460196363385928635e+03
1.127850446859275102e-01 1.514835291524984768e+03 3.438244950692622297e+03
1.132361848646712132e-01 1.914307748000485390e+03 3.448125891327209501e+03
1.136891296041298988e-01 2.104711786495755405e+03 3.445107318226125244e+03
1.141438861225464035e-01 2.291894494834520174e+03 3.441221736877316289e+03
1.146004616670366072e-01 2.786517509513378627e+03 3.447760616151257636e+03
1.150588635137047705e-01 3.202745241870943119e+03 3.449084025094161007e+03
1.155190989677595953e-01 3.412117775839418300e+03 3.443243332447979810e+03
1.159811753636306314e-01 3.789103289094313823e+03 3.441380825204042594e+03
1.164451000650851553e-01 4.595073856715418515e+03 3.448002964586972212e+03
1.169108804653455069e-01 5.065050885654891317e+03 3.445535177317667603e+03
1.173785239872068981e-01 5.391542516248269749e+03 3.439736884837628622e+03
1.178480380831557206e-01 6.543903458144880460e+03 3.446674608252960752e+03
1.183194302354883543e-01 6.794706794081213047e+03 3.438524949988817752e+03
1.187927079564302935e-01 7.363677228857276532e+03 3.434562855502324510e+03
1.192678787882560099e-01 8.629458856008475777e+03 3.438271221601656634e+03
1.197449503034090645e-01 9.679625336630009770e+03 3.437765853814882576e+03
1.202239301046226783e-01 1.139927954354996109e+04 3.442119329232970358e+03
1.207048258250411760e-01 1.075705929355738772e+04 3.424664231792021837e+03
1.211876451283413342e-01 1.451387078852455306e+04 3.442585330485812847e+03
1.216723957088547137e-01 1.357318439914717783e+04 3.424203734489527506e+03
1.221590852916901310e-01 1.609831198112196216e+04 3.429465685375154408e+03
1.226477216328568792e-01 1.786487299041707956e+04 3.428174208494744107e+03
1.231383125193883099e-01 1.897505668148482800e+04 3.422533224678098577e+03
1.236308657694658586e-01 1.988766490816586156e+04 3.415586653959785508e+03
1.241253892325437369e-01 2.417665849324963347e+04 3.423581964608627004e+03
1.246218907894739159e-01 2.548326084760381127e+04 3.417260798638970755e+03
1.251203783526317892e-01 2.512267111898199073e+04 3.404220799604179319e+03
1.256208598660423226e-01 3.300478236367610225e+04 3.420275536925165397e+03
1.261233433055065078e-01 3.448084728769837966e+04 3.413135310022382782e+03
1.266278366787285392e-01 3.890371356686822401e+04 3.413886477967595511e+03
1.271343480254434610e-01 3.577098733265666669e+04 3.393767619675638343e+03
1.276428854175452321e-01 4.939588519119851844e+04 3.415304244973228379e+03
1.281534569592154005e-01 5.779418591732213099e+04 3.420015856656180404e+03
1.286660707870522780e-01 5.791586625080557133e+04 3.408678639908419427e+03
1.291807350702004475e-01 6.370856870156451623e+04 3.407057921692243326e+03
1.296974580104812425e-01 7.544654589141411998e+04 3.413201754971601986e+03
1.302162478425231973e-01 7.964043987972507603e+04 3.407358450426028867e+03
1.307371128338932764e-01 8.860978867474924482e+04 3.407078093678050664e+03
1.312600612852288795e-01 1.071043932402297651e+05 3.415634408482711933e+03
1.317851015303697915e-01 1.127195571521109960e+05 3.409567304975372735e+03
1.323122419364912705e-01 1.427856458893896197e+05 3.423364161363670064e+03
1.328414909042372472e-01 1.540878210941323196e+05 3.420064538262419774e+03
1.333728568678542170e-01 1.734067714494598040e+05 3.421339031742773386e+03
1.339063482953256612e-01 1.937963918032342626e+05 3.421922838678638982e+03
1.344419736885069383e-01 2.451132077031512454e+05 3.436149111518323025e+03
1.349797415832609815e-01 2.509267956969416700e+05 3.427229709558031573e+03
1.355196605495940232e-01 2.773619459708489012e+05 3.426795350620712270e+03
1.360617391917924301e-01 3.031346627108695684e+05 3.425158839137059658e+03
1.366059861485595939e-01 3.730257101643899223e+05 3.436801454418767662e+03
1.371524100931538481e-01 4.126066285517386859e+05 3.436640905380209460e+03
1.377010197335264696e-01 4.377493861859706230e+05 3.431833191487951808e+03
1.382518238124605670e-01 4.837931379382947925e+05 3.431667303848184474e+03
1.388048311077104136e-01 5.416839472467416199e+05 3.433032430478777769e+03
1.393600504321412248e-01 6.130990720401988365e+05 3.435699631633479385e+03
1.399174906338697677e-01 7.395047438019771362e+05 3.445768200201350282e+03
1.404771605964052761e-01 7.597176251606701408e+05 3.437439062304849358e+03
1.410390692387908651e-01 8.493877708105708007e+05 3.438907237152307516e+03
1.416032255157460562e-01 8.592629460596840363e+05 3.428845480891718580e+03
1.421696384178090522e-01 1.151580298126332695e+06 3.451574362324393860e+03
1.427383169714803168e-01 1.199358674575390061e+06 3.444936346250363385e+03
1.433092702393662099e-01 1.106399371246263618e+06 3.424114429373104940e+03
1.438825073203236771e-01 1.421990428686662810e+06 3.442240550999140851e+03
1.444580373496049674e-01 1.296868172573924996e+06 3.420042560232616324e+03
1.450358694990033503e-01 1.851215823804366169e+06 3.450903318284483703e+03
1.456160129769993872e-01 1.812828641507717082e+06 3.437035977176627057e+03
1.461984770289073976e-01 1.769205766799198231e+06 3.422819612200016763e+03
1.467832709370230082e-01 2.244023516512319911e+06 3.439979516533802325e+03
1.473704040207710897e-01 2.472601427067478653e+06 3.440379780186367043e+03
1.479598856368541382e-01 3.069088393376839813e+06 3.455384864204589576e+03
1.485517251794015725e-01 2.885558791379486676e+06 3.436531843886925799e+03
1.491459320801191979e-01 2.663232099596858956e+06 3.415551084890084439e+03
1.497425158084396690e-01 3.039227968218996655e+06 3.420332251055283450e+03
1.503414858716734248e-01 2.682545805884941947e+06 3.394048779392871438e+03
1.509428518151600951e-01 3.686054571884414647e+06 3.421463218426248659e+03
1.515466232224207677e-01 4.615918377960028127e+06 3.438021222844934982e+03
1.521528097153104220e-01 3.986490758892560378e+06 3.408709714177485239e+03
1.527614209541716672e-01 4.351428411553531885e+06 3.408328167871858568e+03
1.533724666379883694e-01 4.217249181753918529e+06 3.393355670625297535e+03
1.539859565045403056e-01 4.064866860941298306e+06 3.377780872765846652e+03
1.546019003305584838e-01 7.693435968466879800e+06 3.446198313292725743e+03
1.552203079318807133e-01 6.802204562392773107e+06 3.419420917706616365e+03
1.558411891636082569e-01 7.177141609854723327e+06 3.415061109796205074e+03
1.564645539202626778e-01 8.655746528085762635e+06 3.427706727053780924e+03
1.570904121359437411e-01 7.439552570345096290e+06 3.397422340979340333e+03
1.577187737844875093e-01 8.484558159685051069e+06 3.402975758689581198e+03
1.583496488796254653e-01 7.637226336247384548e+06 3.378685429937012032e+03
1.589830474751439959e-01 6.840204364259810187e+06 3.353980769587662508e+03
1.596189796650445414e-01 1.062043860715601780e+07 3.398479490294290372e+03
1.602574555837047166e-01 1.200113784678704292e+07 3.403161920363313129e+03
1.608984854060395708e-01 1.041875268747971952e+07 3.374090200041117896e+03
1.615420793476636807e-01 9.482359653574740514e+06 3.351273911595072605e+03
1.621882476650543525e-01 8.592793173821905628e+06 3.328097055329065824e+03
1.628370006557145755e-01 1.056424600253360346e+07 3.343215355777172590e+03
1.634883486583374457e-01 1.102840728881714121e+07 3.337838116136125791e+03
1.641423020529707844e-01 9.164774618907839060e+06 3.303869402438820089e+03
1.647988712611826723e-01 1.313734694625839405e+07 3.338474991061502806e+03
1.654580667462274002e-01 2.183501440971762314e+07 3.393615614862359507e+03
1.661198990132123077e-01 1.769324953660315648e+07 3.355196514214792387e+03
1.667843786092651215e-01 1.807529293184800074e+07 3.347181196057799298e+03
1.674515161237022098e-01 1.699567271383161470e+07 3.328475957268086859e+03
1.681213221881969755e-01 1.408741364690226130e+07 3.293839405020605227e+03
1.687938074769497754e-01 1.344512251404654235e+07 3.277351801376450112e+03
1.694689827068575905e-01 1.280963046661522798e+07 3.260730760174681109e+03
1.701468586376850278e-01 1.340496301181772910e+07 3.255907140953081580e+03
1.708274460722357391e-01 2.064239013917851076e+07 3.300265653211133213e+03
1.715107558565246715e-01 2.527950594098623097e+07 3.316008557478244256e+03
1.721967988799507909e-01 2.410244985871731862e+07 3.299186428404449089e+03
1.728855860754705820e-01 2.821976456620860100e+07 3.309231024166183488e+03
1.735771284197724640e-01 2.446390728697312623e+07 3.280040393686256266e+03
1.742714369334515678e-01 2.302675372049330175e+07 3.261740584331810624e+03
1.749685226811853456e-01 2.176101923815786093e+07 3.244063164011109166e+03
1.756683967719100681e-01 1.862939877842262760e+07 3.213987972658168928e+03
1.763710703589977391e-01 2.013357205266376212e+07 3.213477555902195945e+03
1.770765546404337309e-01 2.575254884147116169e+07 3.234541712167237165e+03
1.777848608589954471e-01 2.834782248793845624e+07 3.236580887861923657e+03
1.784960003024314568e-01 2.812523784716516733e+07 3.225242167657266691e+03
1.792099843036411844e-01 3.266281438746105507e+07 3.234306771294381633e+03
1.799268242408557650e-01 3.042838719656858593e+07 3.214836377714392711e+03
1.806465315378191772e-01 3.311062965696806461e+07 3.215513926404151334e+03
1.813691176639704306e-01 3.367576033838868141e+07 3.207473878883660291e+03
1.820945941346263086e-01 3.170835528913857788e+07 3.189511955218219100e+03
1.828229725111648329e-01 3.213178367441799119e+07 3.181066338234491013e+03
1.835542644012094771e-01 3.787221113457522541e+07 3.192149899551790440e+03
1.842884814588143239e-01 4.144981384458350390e+07 3.193752034491080394e+03
1.850256353846495561e-01 5.142700358521038294e+07 3.211953963138234940e+03
1.857657379261881403e-01 4.559895593825113773e+07 3.185970810490338863e+03
1.865088008778928996e-01 4.597774034018241614e+07 3.176963041455786424e+03
1.872548360814044743e-01 5.325396429587837309e+07 3.186177343298846608e+03
1.880038554257300876e-01 5.405165314468719065e+07 3.178068004322175511e+03
1.887558708474330049e-01 5.111091557582674176e+07 3.160688979552440742e+03
1.895108943308226879e-01 5.368016500373614579e+07 3.157119863163513855e+03
1.902689379081460019e-01 6.205564162430363894e+07 3.166234802453711836e+03
1.910300136597785636e-01 5.912303975941893458e+07 3.149872298211180805e+03
1.917941337144176972e-01 5.661177720453401655e+07 3.134253571791861759e+03
1.925613102492753359e-01 6.316227171691842377e+07 3.138722826093602180e+03
1.933315554902724498e-01 6.871741883531650901e+07 3.139953670401426280e+03
1.941048817122335568e-01 7.094614137672361732e+07 3.134296553529609810e+03
1.948813012390824828e-01 8.326458266770467162e+07 3.145732983965192034e+03
1.956608264440388156e-01 7.805965204162095487e+07 3.127265474828001516e+03
1.964434697498149418e-01 8.303198750588709116e+07 3.125655653581200113e+03
1.972292436288141937e-01 8.553550868472510576e+07 3.119807802380272733e+03
1.980181606033294406e-01 1.021940700327159911e+08 3.133871664937998503e+03
1.988102332457427346e-01 1.119557671844324023e+08 3.136410358424352580e+03
1.996054741787257336e-01 1.097711930859263539e+08 3.123949100885316511e+03
2.004038960754406518e-01 1.198844516611230075e+08 3.126130815676404382e+03
2.012055116597424309e-01 1.295816549377025664e+08 3.126969287958030236e+03
2.020103337063813842e-01 1.466092921759343445e+08 3.134144792987155142e+03
2.028183750412069219e-01 1.545541475282584131e+08 3.131669890605562159e+03
2.036296485413717494e-01 1.519429767179302871e+08 3.119594913067996458e+03
2.044441671355372303e-01 1.473746457595419884e+08 3.105718912762319633e+03
2.052619438040793887e-01 1.508647225194729865e+08 3.099269995599673166e+03
2.060829915792957157e-01 1.759088944319307804e+08 3.110764593123606573e+03
2.069073235456129201e-01 1.845401183460127115e+08 3.107757130911201784e+03
2.077349528397953449e-01 1.983717119550147653e+08 3.108173395961106962e+03
2.085658926511545219e-01 2.376471159271259010e+08 3.123880511728543752e+03
2.094001562217591150e-01 2.662549702803015113e+08 3.130355332617813929e+03
2.102377568466461677e-01 3.171793059064303637e+08 3.145795214929215035e+03
2.110787078740327671e-01 3.333966890417374372e+08 3.143339726728731875e+03
2.119230227055288740e-01 3.352738287751237154e+08 3.134508970254413725e+03
2.127707147963510126e-01 3.591615865942378640e+08 3.134856327853852235e+03
2.136217976555363773e-01 3.877732960984385610e+08 3.136397672073828289e+03
2.144762848461585492e-01 4.317585426166356802e+08 3.142525113485379279e+03
2.153341899855431840e-01 4.631740855559419990e+08 3.143270981431254768e+03
2.161955267454853669e-01 5.475584849634808302e+08 3.158550760034893756e+03
2.170603088524672986e-01 5.584069032355813980e+08 3.151880775575326425e+03
2.179285500878772042e-01 5.873458952958933115e+08 3.149868625508255718e+03
2.188002642882286852e-01 6.535923010979204178e+08 3.156397068242848945e+03
2.196754653453815986e-01 6.606899163462600708e+08 3.148465272573974289e+03
2.205541672067631020e-01 6.871316091496589184e+08 3.144861222358236773e+03
2.214363838755901703e-01 7.878351337358759642e+08 3.156150365599809902e+03
2.223221294110925284e-01 8.150827491868257523e+08 3.151827976616415526e+03
2.232114179287369160e-01 7.628653641629089117e+08 3.132224008895367660e+03
2.241042636004518529e-01 8.690379208185896873e+08 3.142665976473131650e+03
2.250006806548536520e-01 9.050849366222090721e+08 3.139447814965774796e+03
2.259006833774730438e-01 1.107744540833153248e+09 3.161358789642704778e+03
2.268042861109829667e-01 1.147985628507309198e+09 3.157474316803491547e+03
2.277115032554268836e-01 1.141912043600348711e+09 3.147187813024041589e+03
2.286223492684485714e-01 1.156512532322000742e+09 3.139751830788639381e+03
2.295368386655223802e-01 1.160630562244132280e+09 3.130911686140510938e+03
2.304549860201844658e-01 1.480842361063512087e+09 3.159997841896649788e+03
2.313768059642651864e-01 1.252459760210205078e+09 3.124104811179064200e+03
2.323023131881222503e-01 1.366273590728675604e+09 3.128446660919194983e+03
2.332315224408747223e-01 1.300325681015593529e+09 3.111349982745717625e+03
2.341644485306381973e-01 1.610369521237706900e+09 3.135891435703390471e+03
2.351011063247607502e-01 1.935460063774633169e+09 3.156195657739346643e+03
2.360415107500598020e-01 1.830753299054552794e+09 3.137857382004715873e+03
2.369856767930600405e-01 2.202322891392399311e+09 3.158609488006193260e+03
2.379336195002322851e-01 2.265321085216081619e+09 3.153919386653017227e+03
2.388853539782332114e-01 2.144029706923830032e+09 3.135625165311242654e+03
2.398408953941461863e-01 2.143481867147683859e+09 3.126336117315399861e+03
2.408002589757227141e-01 2.215476473427790165e+09 3.122494707163512430e+03
2.417634600116256582e-01 2.594716367561452866e+09 3.139217532511919217e+03
2.427305138516721306e-01 2.139604781105839252e+09 3.098484472664450550e+03
2.437014359070788505e-01 2.245379063356805325e+09 3.097170903871137853e+03
2.446762416507071713e-01 2.044495890023133993e+09 3.072954098083861936e+03
2.456549466173099938e-01 2.288550562918968201e+09 3.082064157811950736e+03
2.466375664037792625e-01 2.571691833263442516e+09 3.091986351582853786e+03
2.476241166693943785e-01 2.877009163621787548e+09 3.101365432469770894e+03
2.486146131360719436e-01 5.185432555322354317e+09 3.192683358043101634e+03
2.496090715886161993e-01 3.502274477338123322e+09 3.116006105039246449e+03
2.506075078749706586e-01 3.685152995630447865e+09 3.115512193680357541e+03
2.516099379064705155e-01 4.140429762597377777e+09 3.126221278946159600e+03
2.526163776580964138e-01 4.574312993423815727e+09 3.134239100214400878e+03
2.536268431687287994e-01 2.970213106658621311e+09 3.052644037886786009e+03
2.546413505414037437e-01 2.918611361021947384e+09 3.040879995915905056e+03
2.556599159435693491e-01 3.042714519214404106e+09 3.038828158788817291e+03
2.566825556073435988e-01 4.141969338380712509e+09 3.081295437640945238e+03
2.577092858297729827e-01 3.942962042398286343e+09 3.064093356828780543e+03
2.587401229730920682e-01 4.774591993117171288e+09 3.087657705749964862e+03
2.597750834649844576e-01 4.760360536120932579e+09 3.078254380690676498e+03
2.608141837988444123e-01 4.546371100729582787e+09 3.061565635867906622e+03
2.618574405340398092e-01 4.420755494605534554e+09 3.048006534076743264e+03
2.629048702961759298e-01 4.359426689425776482e+09 3.036871044053611968e+03
2.639564897773606367e-01 4.103296077413626671e+09 3.017982018991805489e+03
2.650123157364701054e-01 4.499773494536009789e+09 3.024726322581530439e+03
2.660723649994159445e-01 4.372287289515134811e+09 3.011204233955123073e+03
2.671366544594135917e-01 5.097183336376709938e+09 3.028409546281718121e+03
2.682052010772512096e-01 4.929364297870540619e+09 3.014055848710429018e+03
2.692780218815602478e-01 5.213123724095233917e+09 3.014894799575158686e+03
2.703551339690865030e-01 5.006542875224843979e+09 2.999422206124073909e+03
2.714365545049627904e-01 5.885973845839740753e+09 3.018361895466875467e+03
2.725223007229827243e-01 6.067151929269677162e+09 3.014958357385276486e+03
2.736123899258746106e-01 6.247692413803114891e+09 3.011412157936748372e+03
2.747068394855781692e-01 6.953549520533382416e+09 3.021363749925608317e+03
2.758056668435204806e-01 6.624915770017332077e+09 3.004400522842151076e+03
2.769088895108945403e-01 6.283424992167108536e+09 2.986767274868587720e+03
2.780165250689380918e-01 6.141277838932893753e+09 2.974368735753221699e+03
2.791285911692138466e-01 1.021973672750343132e+10 3.055349439478460681e+03
2.802451055338907038e-01 9.337172471203664780e+09 3.030552579902436264e+03
2.813660859560263017e-01 5.542466915874224663e+09 2.931771095794087614e+03
2.824915502998503469e-01 6.282768294948230743e+09 2.944597880937909395e+03
2.836215165010497197e-01 6.230998845469505310e+09 2.934846990852521230e+03
2.847560025670539119e-01 1.533791919753018379e+10 3.087428995806342755e+03
2.858950265773221866e-01 9.215571169718128204e+09 2.985924505418287481e+03
2.870386066836315142e-01 7.228546233908757210e+09 2.935254370606980046e+03
